# Action spectra of TEMIS UV v2.0 data products
# ---------------------------------------------
#
# Implemented in TEMIS UV v2.0 processing:
#   Erythemal  = CIE-98, cf. Webb, A.R. et al. (2011)
#   Vitamin-D  = CIE-174, cf. Bouillon, R. et al. (2006)
#   DNA-damage = Setlow, R.B. (1974)
#                Bernhard, G. and Seckmeyer, G. (1997)
#
# For more information, see
# http://www.temis.nl/uvradiation/product/action.html
#
#
# Action spectrum data at 0.1 nm interval, produced from
# the implementation by Marc Allaart (KNMI, April 2017).
#
#
#
,wavelength,Erythemal,DNA-damage,Vitamin-D
0,250.0,1.0,30.1187,0.03
1,250.1,1.0,30.1129,0.0303
2,250.2,1.0,30.1069,0.0306
3,250.3,1.0,30.1009,0.0309
4,250.4,1.0,30.0948,0.0312
5,250.5,1.0,30.0886,0.0315
6,250.6,1.0,30.0823,0.0318
7,250.7,1.0,30.0761,0.0321
8,250.8,1.0,30.0697,0.0324
9,250.9,1.0,30.0633,0.0327
10,251.0,1.0,30.0567,0.033
11,251.1,1.0,30.0501,0.0333
12,251.2,1.0,30.0435,0.0336
13,251.3,1.0,30.0367,0.0339
14,251.4,1.0,30.03,0.0342
15,251.5,1.0,30.0231,0.0345
16,251.6,1.0,30.0161,0.0348
17,251.7,1.0,30.0091,0.0351
18,251.8,1.0,30.002,0.0354
19,251.9,1.0,29.9948,0.0357
20,252.0,1.0,29.9876,0.036
21,252.1,1.0,29.9803,0.0363
22,252.2,1.0,29.9728,0.0366
23,252.3,1.0,29.9654,0.0369
24,252.4,1.0,29.9578,0.0372
25,252.5,1.0,29.9501,0.0375
26,252.6,1.0,29.9424,0.0378
27,252.7,1.0,29.9345,0.0381
28,252.8,1.0,29.9266,0.0384
29,252.9,1.0,29.9187,0.0387
30,253.0,1.0,29.9106,0.039
31,253.1,1.0,29.9024,0.0394
32,253.2,1.0,29.8941,0.0398
33,253.3,1.0,29.8858,0.0402
34,253.4,1.0,29.8773,0.0406
35,253.5,1.0,29.8688,0.041
36,253.6,1.0,29.8602,0.0414
37,253.7,1.0,29.8515,0.0418
38,253.8,1.0,29.8426,0.0422
39,253.9,1.0,29.8337,0.0426
40,254.0,1.0,29.8247,0.043
41,254.1,1.0,29.8156,0.0434
42,254.2,1.0,29.8064,0.0438
43,254.3,1.0,29.7971,0.0442
44,254.4,1.0,29.7877,0.0446
45,254.5,1.0,29.7782,0.045
46,254.6,1.0,29.7686,0.0454
47,254.7,1.0,29.7589,0.0458
48,254.8,1.0,29.7491,0.0462
49,254.9,1.0,29.7392,0.0466
50,255.0,1.0,29.7291,0.047
51,255.1,1.0,29.719,0.0474
52,255.2,1.0,29.7087,0.0478
53,255.3,1.0,29.6984,0.0482
54,255.4,1.0,29.6879,0.0486
55,255.5,1.0,29.6773,0.049
56,255.6,1.0,29.6667,0.0494
57,255.7,1.0,29.6558,0.0498
58,255.8,1.0,29.6449,0.0502
59,255.9,1.0,29.6339,0.0506
60,256.0,1.0,29.6227,0.051
61,256.1,1.0,29.6114,0.0515
62,256.2,1.0,29.6,0.0520001
63,256.3,1.0,29.5885,0.0525001
64,256.4,1.0,29.5769,0.053
65,256.5,1.0,29.5651,0.0535
66,256.6,1.0,29.5532,0.054
67,256.7,1.0,29.5412,0.0545001
68,256.8,1.0,29.529,0.0550001
69,256.9,1.0,29.5168,0.0555
70,257.0,1.0,29.5043,0.056
71,257.1,1.0,29.4918,0.0565
72,257.2,1.0,29.4791,0.0570001
73,257.3,1.0,29.4663,0.0575001
74,257.4,1.0,29.4533,0.058
75,257.5,1.0,29.4403,0.0585
76,257.6,1.0,29.427,0.059
77,257.7,1.0,29.4137,0.0595001
78,257.8,1.0,29.4001,0.0600001
79,257.9,1.0,29.3865,0.0605
80,258.0,1.0,29.3726,0.061
81,258.1,1.0,29.3587,0.0615
82,258.2,1.0,29.3446,0.0620001
83,258.3,1.0,29.3304,0.0625001
84,258.4,1.0,29.316,0.063
85,258.5,1.0,29.3014,0.0635
86,258.6,1.0,29.2867,0.064
87,258.7,1.0,29.2718,0.0645001
88,258.8,1.0,29.2568,0.0650001
89,258.9,1.0,29.2417,0.0655
90,259.0,1.0,29.2263,0.066
91,259.1,1.0,29.2108,0.0669001
92,259.2,1.0,29.1952,0.0678001
93,259.3,1.0,29.1793,0.0687002
94,259.4,1.0,29.1634,0.0695999
95,259.5,1.0,29.1472,0.0705
96,259.6,1.0,29.1308,0.0714001
97,259.7,1.0,29.1143,0.0723001
98,259.8,1.0,29.0977,0.0732002
99,259.9,1.0,29.0808,0.0741
100,260.0,1.0,29.0638,0.075
101,260.1,1.0,29.0465,0.0759001
102,260.2,1.0,29.0292,0.0768001
103,260.3,1.0,29.0116,0.0777002
104,260.4,1.0,28.9939,0.0785999
105,260.5,1.0,28.9759,0.0795
106,260.6,1.0,28.9578,0.0804
107,260.7,1.0,28.9394,0.0813001
108,260.8,1.0,28.9209,0.0822002
109,260.9,1.0,28.9022,0.0830999
110,261.0,1.0,28.8833,0.084
111,261.1,1.0,28.8642,0.0849001
112,261.2,1.0,28.845,0.0858001
113,261.3,1.0,28.8254,0.0867002
114,261.4,1.0,28.8057,0.0875999
115,261.5,1.0,28.7858,0.0885
116,261.6,1.0,28.7657,0.0894001
117,261.7,1.0,28.7454,0.0903001
118,261.8,1.0,28.7249,0.0912002
119,261.9,1.0,28.7042,0.0920999
120,262.0,1.0,28.6832,0.093
121,262.1,1.0,28.6621,0.0939001
122,262.2,1.0,28.6406,0.0948001
123,262.3,1.0,28.619,0.0957002
124,262.4,1.0,28.5972,0.0965999
125,262.5,1.0,28.5752,0.0975
126,262.6,1.0,28.5529,0.0984001
127,262.7,1.0,28.5304,0.0993001
128,262.8,1.0,28.5076,0.1002
129,262.9,1.0,28.4847,0.1011
130,263.0,1.0,28.4615,0.102
131,263.1,1.0,28.438,0.103
132,263.2,1.0,28.4143,0.104
133,263.3,1.0,28.3904,0.105
134,263.4,1.0,28.3662,0.106
135,263.5,1.0,28.3418,0.107
136,263.6,1.0,28.3172,0.108
137,263.7,1.0,28.2922,0.109
138,263.8,1.0,28.267,0.11
139,263.9,1.0,28.2416,0.111
140,264.0,1.0,28.2159,0.112
141,264.1,1.0,28.19,0.113
142,264.2,1.0,28.1638,0.114
143,264.3,1.0,28.1373,0.115
144,264.4,1.0,28.1106,0.116
145,264.5,1.0,28.0836,0.117
146,264.6,1.0,28.0563,0.118
147,264.7,1.0,28.0288,0.119
148,264.8,1.0,28.0009,0.12
149,264.9,1.0,27.9728,0.121
150,265.0,1.0,27.9445,0.122
151,265.1,1.0,27.9158,0.1231
152,265.2,1.0,27.8868,0.1242
153,265.3,1.0,27.8576,0.1253
154,265.4,1.0,27.828,0.1264
155,265.5,1.0,27.7982,0.1275
156,265.6,1.0,27.7681,0.1286
157,265.7,1.0,27.7376,0.1297
158,265.8,1.0,27.7069,0.1308
159,265.9,1.0,27.6759,0.1319
160,266.0,1.0,27.6446,0.133
161,266.1,1.0,27.6129,0.1343
162,266.2,1.0,27.581,0.1356
163,266.3,1.0,27.5487,0.1369
164,266.4,1.0,27.5161,0.1382
165,266.5,1.0,27.4832,0.1395
166,266.6,1.0,27.45,0.1408
167,266.7,1.0,27.4165,0.1421
168,266.8,1.0,27.3826,0.1434
169,266.9,1.0,27.3484,0.1447
170,267.0,1.0,27.3138,0.146
171,267.1,1.0,27.2789,0.1474
172,267.2,1.0,27.2437,0.1488
173,267.3,1.0,27.2082,0.1502
174,267.4,1.0,27.1723,0.1516
175,267.5,1.0,27.1361,0.153
176,267.6,1.0,27.0994,0.1544
177,267.7,1.0,27.0625,0.1558
178,267.8,1.0,27.0252,0.1572
179,267.9,1.0,26.9876,0.1586
180,268.0,1.0,26.9496,0.16
181,268.1,1.0,26.9112,0.1617
182,268.2,1.0,26.8725,0.1634
183,268.3,1.0,26.8333,0.1651
184,268.4,1.0,26.7939,0.1668
185,268.5,1.0,26.754,0.1685
186,268.6,1.0,26.7138,0.1702
187,268.7,1.0,26.6732,0.1719
188,268.8,1.0,26.6322,0.1736
189,268.9,1.0,26.5908,0.1753
190,269.0,1.0,26.549,0.177
191,269.1,1.0,26.5069,0.1788
192,269.2,1.0,26.4643,0.1806
193,269.3,1.0,26.4214,0.1824
194,269.4,1.0,26.3781,0.1842
195,269.5,1.0,26.3344,0.186
196,269.6,1.0,26.2902,0.1878
197,269.7,1.0,26.2456,0.1896
198,269.8,1.0,26.2007,0.1914
199,269.9,1.0,26.1553,0.1932
200,270.0,1.0,26.1095,0.195
201,270.1,1.0,26.0633,0.1971
202,270.2,1.0,26.0167,0.1992
203,270.3,1.0,25.9696,0.2013
204,270.4,1.0,25.9222,0.2034
205,270.5,1.0,25.8742,0.2055
206,270.6,1.0,25.8259,0.2076
207,270.7,1.0,25.7771,0.2097
208,270.8,1.0,25.7279,0.2118
209,270.9,1.0,25.6783,0.2139
210,271.0,1.0,25.6282,0.216
211,271.1,1.0,25.5777,0.2182
212,271.2,1.0,25.5266,0.2204
213,271.3,1.0,25.4752,0.2226
214,271.4,1.0,25.4233,0.2248
215,271.5,1.0,25.371,0.227
216,271.6,1.0,25.3182,0.2292
217,271.7,1.0,25.2649,0.2314
218,271.8,1.0,25.2111,0.2336
219,271.9,1.0,25.157,0.2358
220,272.0,1.0,25.1023,0.238
221,272.1,1.0,25.0471,0.2405
222,272.2,1.0,24.9915,0.243
223,272.3,1.0,24.9354,0.2455
224,272.4,1.0,24.8788,0.248
225,272.5,1.0,24.8218,0.2505
226,272.6,1.0,24.7642,0.253
227,272.7,1.0,24.7062,0.2555
228,272.8,1.0,24.6477,0.258
229,272.9,1.0,24.5887,0.2605
230,273.0,1.0,24.5291,0.263
231,273.1,1.0,24.4691,0.2656
232,273.2,1.0,24.4086,0.2682
233,273.3,1.0,24.3476,0.2708
234,273.4,1.0,24.2861,0.2734
235,273.5,1.0,24.2241,0.276
236,273.6,1.0,24.1616,0.2786
237,273.7,1.0,24.0985,0.2812
238,273.8,1.0,24.035,0.2838
239,273.9,1.0,23.9709,0.2864
240,274.0,1.0,23.9063,0.289
241,274.1,1.0,23.8413,0.2918
242,274.2,1.0,23.7756,0.2946
243,274.3,1.0,23.7095,0.297401
244,274.4,1.0,23.6428,0.3002
245,274.5,1.0,23.5756,0.303
246,274.6,1.0,23.5079,0.3058
247,274.7,1.0,23.4397,0.3086
248,274.8,1.0,23.3708,0.311401
249,274.9,1.0,23.3016,0.3142
250,275.0,1.0,23.2317,0.317
251,275.1,1.0,23.1613,0.3199
252,275.2,1.0,23.0904,0.3228
253,275.3,1.0,23.0189,0.325701
254,275.4,1.0,22.9469,0.3286
255,275.5,1.0,22.8744,0.3315
256,275.6,1.0,22.8013,0.3344
257,275.7,1.0,22.7277,0.3373
258,275.8,1.0,22.6535,0.340201
259,275.9,1.0,22.5788,0.3431
260,276.0,1.0,22.5035,0.346
261,276.1,1.0,22.4277,0.349
262,276.2,1.0,22.3513,0.352
263,276.3,1.0,22.2744,0.355001
264,276.4,1.0,22.1969,0.358
265,276.5,1.0,22.1189,0.361
266,276.6,1.0,22.0403,0.364
267,276.7,1.0,21.9612,0.367
268,276.8,1.0,21.8815,0.370001
269,276.9,1.0,21.8013,0.373
270,277.0,1.0,21.7205,0.376
271,277.1,1.0,21.6392,0.3792
272,277.2,1.0,21.5573,0.3824
273,277.3,1.0,21.4748,0.385601
274,277.4,1.0,21.3919,0.3888
275,277.5,1.0,21.3083,0.392
276,277.6,1.0,21.2242,0.3952
277,277.7,1.0,21.1396,0.3984
278,277.8,1.0,21.0543,0.401601
279,277.9,1.0,20.9686,0.4048
280,278.0,1.0,20.8823,0.408
281,278.1,1.0,20.7955,0.4112
282,278.2,1.0,20.708,0.4144
283,278.3,1.0,20.6201,0.417601
284,278.4,1.0,20.5316,0.4208
285,278.5,1.0,20.4425,0.424
286,278.6,1.0,20.353,0.4272
287,278.7,1.0,20.2628,0.4304
288,278.8,1.0,20.1721,0.433601
289,278.9,1.0,20.081,0.4368
290,279.0,1.0,19.9892,0.44
291,279.1,1.0,19.8969,0.4434
292,279.2,1.0,19.8041,0.4468
293,279.3,1.0,19.7107,0.450201
294,279.4,1.0,19.6169,0.4536
295,279.5,1.0,19.5225,0.457
296,279.6,1.0,19.4276,0.4604
297,279.7,1.0,19.3321,0.4638
298,279.8,1.0,19.2361,0.467201
299,279.9,1.0,19.1397,0.4706
300,280.0,1.0,19.0427,0.474
301,280.1,1.0,18.9451,0.4809
302,280.2,1.0,18.8471,0.487801
303,280.3,1.0,18.7486,0.494701
304,280.4,1.0,18.6496,0.5016
305,280.5,1.0,18.5501,0.5085
306,280.6,1.0,18.4501,0.5154
307,280.7,1.0,18.3496,0.522301
308,280.8,1.0,18.2486,0.529201
309,280.9,1.0,18.1472,0.5361
310,281.0,1.0,18.0453,0.543
311,281.1,1.0,17.9429,0.547
312,281.2,1.0,17.84,0.551
313,281.3,1.0,17.7367,0.555001
314,281.4,1.0,17.6329,0.559
315,281.5,1.0,17.5287,0.563
316,281.6,1.0,17.424,0.567
317,281.7,1.0,17.3189,0.571001
318,281.8,1.0,17.2134,0.575001
319,281.9,1.0,17.1074,0.579
320,282.0,1.0,17.001,0.583
321,282.1,1.0,16.8942,0.5864
322,282.2,1.0,16.787,0.5898
323,282.3,1.0,16.6794,0.593201
324,282.4,1.0,16.5714,0.5966
325,282.5,1.0,16.463,0.6
326,282.6,1.0,16.3542,0.6034
327,282.7,1.0,16.245,0.6068
328,282.8,1.0,16.1355,0.610201
329,282.9,1.0,16.0257,0.6136
330,283.0,1.0,15.9154,0.617
331,283.1,1.0,15.8048,0.6205
332,283.2,1.0,15.6939,0.624
333,283.3,1.0,15.5827,0.627501
334,283.4,1.0,15.4711,0.631
335,283.5,1.0,15.3592,0.6345
336,283.6,1.0,15.2471,0.638
337,283.7,1.0,15.1346,0.6415
338,283.8,1.0,15.0218,0.645001
339,283.9,1.0,14.9088,0.6485
340,284.0,1.0,14.7955,0.652
341,284.1,1.0,14.6819,0.6557
342,284.2,1.0,14.5681,0.6594
343,284.3,1.0,14.4541,0.663101
344,284.4,1.0,14.3398,0.6668
345,284.5,1.0,14.2253,0.6705
346,284.6,1.0,14.1106,0.6742
347,284.7,1.0,13.9957,0.6779
348,284.8,1.0,13.8806,0.681601
349,284.9,1.0,13.7654,0.6853
350,285.0,1.0,13.6499,0.689
351,285.1,1.0,13.5343,0.6926
352,285.2,1.0,13.4186,0.6962
353,285.3,1.0,13.3027,0.699801
354,285.4,1.0,13.1868,0.7034
355,285.5,1.0,13.0706,0.707
356,285.6,1.0,12.9544,0.7106
357,285.7,1.0,12.8381,0.7142
358,285.8,1.0,12.7218,0.717801
359,285.9,1.0,12.6054,0.7214
360,286.0,1.0,12.4889,0.725
361,286.1,1.0,12.3724,0.7288
362,286.2,1.0,12.2558,0.7326
363,286.3,1.0,12.1393,0.736401
364,286.4,1.0,12.0227,0.7402
365,286.5,1.0,11.9062,0.744
366,286.6,1.0,11.7896,0.7478
367,286.7,1.0,11.6731,0.7516
368,286.8,1.0,11.5567,0.755401
369,286.9,1.0,11.4403,0.7592
370,287.0,1.0,11.324,0.763
371,287.1,1.0,11.2078,0.7672
372,287.2,1.0,11.0917,0.771401
373,287.3,1.0,10.9756,0.775601
374,287.4,1.0,10.8598,0.7798
375,287.5,1.0,10.7441,0.784
376,287.6,1.0,10.6285,0.7882
377,287.7,1.0,10.5131,0.7924
378,287.8,1.0,10.3978,0.796601
379,287.9,1.0,10.2828,0.8008
380,288.0,1.0,10.168,0.805
381,288.1,1.0,10.0534,0.8087
382,288.2,1.0,9.93902,0.8124
383,288.3,1.0,9.82491,0.816101
384,288.4,1.0,9.71108,0.8198
385,288.5,1.0,9.59751,0.8235
386,288.6,1.0,9.48423,0.8272
387,288.7,1.0,9.37125,0.8309
388,288.8,1.0,9.25859,0.834601
389,288.9,1.0,9.14629,0.8383
390,289.0,1.0,9.03431,0.842
391,289.1,1.0,8.9227,0.8456
392,289.2,1.0,8.81146,0.8492
393,289.3,1.0,8.7006,0.852801
394,289.4,1.0,8.59018,0.8564
395,289.5,1.0,8.48014,0.86
396,289.6,1.0,8.37053,0.8636
397,289.7,1.0,8.26137,0.8672
398,289.8,1.0,8.15266,0.870801
399,289.9,1.0,8.04444,0.8744
400,290.0,1.0,7.93669,0.878
401,290.1,1.0,7.82943,0.8805
402,290.2,1.0,7.72267,0.883
403,290.3,1.0,7.61644,0.8855
404,290.4,1.0,7.51077,0.888
405,290.5,1.0,7.40562,0.8905
406,290.6,1.0,7.30102,0.893
407,290.7,1.0,7.19699,0.8955
408,290.8,1.0,7.09356,0.898
409,290.9,1.0,6.99075,0.9005
410,291.0,1.0,6.88852,0.903
411,291.1,1.0,6.7869,0.9055
412,291.2,1.0,6.68592,0.908
413,291.3,1.0,6.58558,0.9105
414,291.4,1.0,6.48593,0.913
415,291.5,1.0,6.38691,0.9155
416,291.6,1.0,6.28857,0.918
417,291.7,1.0,6.19092,0.9205
418,291.8,1.0,6.09396,0.923
419,291.9,1.0,5.99775,0.9255
420,292.0,1.0,5.90222,0.928
421,292.1,1.0,5.80742,0.9304
422,292.2,1.0,5.71337,0.9328
423,292.3,1.0,5.62006,0.9352
424,292.4,1.0,5.52754,0.9376
425,292.5,1.0,5.43575,0.94
426,292.6,1.0,5.34474,0.9424
427,292.7,1.0,5.25451,0.9448
428,292.8,1.0,5.16508,0.9472
429,292.9,1.0,5.07647,0.9496
430,293.0,1.0,4.98864,0.952
431,293.1,1.0,4.90163,0.9544
432,293.2,1.0,4.81544,0.9568
433,293.3,1.0,4.73009,0.959201
434,293.4,1.0,4.64559,0.9616
435,293.5,1.0,4.56192,0.964
436,293.6,1.0,4.47908,0.9664
437,293.7,1.0,4.39711,0.9688
438,293.8,1.0,4.316,0.9712
439,293.9,1.0,4.23577,0.9736
440,294.0,1.0,4.1564,0.976
441,294.1,1.0,4.0779,0.9767
442,294.2,1.0,4.00028,0.9774
443,294.3,1.0,3.92354,0.9781
444,294.4,1.0,3.84772,0.9788
445,294.5,1.0,3.77276,0.9795
446,294.6,1.0,3.6987,0.9802
447,294.7,1.0,3.62553,0.9809
448,294.8,1.0,3.55327,0.9816
449,294.9,1.0,3.48193,0.9823
450,295.0,1.0,3.41146,0.983
451,295.1,1.0,3.34191,0.9837
452,295.2,1.0,3.27327,0.9844
453,295.3,1.0,3.20553,0.9851
454,295.4,1.0,3.13872,0.9858
455,295.5,1.0,3.0728,0.9865
456,295.6,1.0,3.00779,0.9872
457,295.7,1.0,2.94369,0.9879
458,295.8,1.0,2.8805,0.9886
459,295.9,1.0,2.81823,0.9893
460,296.0,1.0,2.75686,0.99
461,296.1,1.0,2.69638,0.9906
462,296.2,1.0,2.63681,0.9912
463,296.3,1.0,2.57814,0.9918
464,296.4,1.0,2.52039,0.9924
465,296.5,1.0,2.46352,0.993
466,296.6,1.0,2.40755,0.9936
467,296.7,1.0,2.35246,0.9942
468,296.8,1.0,2.29826,0.9948
469,296.9,1.0,2.24496,0.9954
470,297.0,1.0,2.19253,0.996
471,297.1,1.0,2.14097,0.9964
472,297.2,1.0,2.09028,0.9968
473,297.3,1.0,2.04046,0.9972
474,297.4,1.0,1.99152,0.9976
475,297.5,1.0,1.94341,0.998
476,297.6,1.0,1.89616,0.9984
477,297.7,1.0,1.84976,0.9988
478,297.8,1.0,1.80419,0.9992
479,297.9,1.0,1.75947,0.9996
480,298.0,1.0,1.71557,1.0
481,298.1,0.978587,1.67248,0.9977
482,298.2,0.957632,1.63021,0.9954
483,298.3,0.937127,1.58875,0.9931
484,298.4,0.917066,1.5481,0.9908
485,298.5,0.897429,1.50823,0.9885
486,298.6,0.878212,1.46915,0.9862
487,298.7,0.859407,1.43084,0.9839
488,298.8,0.841004,1.39331,0.9816
489,298.9,0.823001,1.35655,0.9793
490,299.0,0.805378,1.32053,0.977
491,299.1,0.788133,1.28526,0.9744
492,299.2,0.771257,1.25072,0.9718
493,299.3,0.754742,1.21692,0.9692
494,299.4,0.738585,1.18385,0.9666
495,299.5,0.72277,1.15147,0.964
496,299.6,0.707293,1.11981,0.9614
497,299.7,0.692148,1.08883,0.9588
498,299.8,0.677327,1.05855,0.9562
499,299.9,0.662828,1.02894,0.9536
500,300.0,0.648634,1.0,0.951
501,300.1,0.634745,0.971714,0.9476
502,300.2,0.621153,0.944077,0.9442
503,300.3,0.607853,0.91708,0.940799
504,300.4,0.594841,0.890722,0.9374
505,300.5,0.582103,0.864975,0.934
506,300.6,0.569639,0.839841,0.9306
507,300.7,0.557441,0.815309,0.9272
508,300.8,0.545504,0.791368,0.923799
509,300.9,0.533827,0.768018,0.9204
510,301.0,0.522396,0.745234,0.917
511,301.1,0.51121,0.723014,0.9131
512,301.2,0.500264,0.701348,0.9092
513,301.3,0.489551,0.680227,0.905299
514,301.4,0.479072,0.659647,0.9014
515,301.5,0.468813,0.639586,0.8975
516,301.6,0.458775,0.620042,0.8936
517,301.7,0.448951,0.601004,0.8897
518,301.8,0.439338,0.582464,0.885799
519,301.9,0.429933,0.564417,0.8819
520,302.0,0.420727,0.546843,0.878
521,302.1,0.411718,0.529739,0.867299
522,302.2,0.402901,0.513094,0.856599
523,302.3,0.394274,0.4969,0.845898
524,302.4,0.385834,0.481153,0.835201
525,302.5,0.377572,0.465833,0.8245
526,302.6,0.369487,0.450938,0.813799
527,302.7,0.361575,0.436457,0.803099
528,302.8,0.353833,0.422382,0.792398
529,302.9,0.346259,0.408708,0.781701
530,303.0,0.338844,0.395419,0.771
531,303.1,0.331589,0.38251,0.764
532,303.2,0.324488,0.369972,0.756999
533,303.3,0.31754,0.357797,0.749999
534,303.4,0.310742,0.345981,0.743
535,303.5,0.304089,0.334507,0.736
536,303.6,0.297577,0.323372,0.729
537,303.7,0.291205,0.312567,0.721999
538,303.8,0.284969,0.302085,0.714999
539,303.9,0.278869,0.291921,0.708
540,304.0,0.272898,0.28206,0.701
541,304.1,0.267054,0.2725,0.6943
542,304.2,0.261336,0.263231,0.687599
543,304.3,0.25574,0.254247,0.680899
544,304.4,0.250265,0.245543,0.6742
545,304.5,0.244906,0.237107,0.6675
546,304.6,0.239662,0.228935,0.6608
547,304.7,0.23453,0.221019,0.654099
548,304.8,0.229508,0.213352,0.647399
549,304.9,0.224595,0.205931,0.6407
550,305.0,0.219786,0.198745,0.634
551,305.1,0.21508,0.191789,0.6272
552,305.2,0.210474,0.185056,0.620399
553,305.3,0.205967,0.178542,0.613599
554,305.4,0.201558,0.172241,0.6068
555,305.5,0.197242,0.166144,0.6
556,305.6,0.193019,0.160247,0.5932
557,305.7,0.188886,0.154545,0.586399
558,305.8,0.184841,0.149032,0.579599
559,305.9,0.180884,0.143703,0.5728
560,306.0,0.177011,0.138551,0.566
561,306.1,0.173221,0.133572,0.5582
562,306.2,0.169511,0.12876,0.550399
563,306.3,0.165882,0.124111,0.542599
564,306.4,0.162331,0.119622,0.5348
565,306.5,0.158855,0.115284,0.527
566,306.6,0.155453,0.111095,0.5192
567,306.7,0.152124,0.10705,0.511399
568,306.8,0.148867,0.103144,0.503599
569,306.9,0.14568,0.0993749,0.4958
570,307.0,0.142561,0.0957355,0.488
571,307.1,0.139508,0.0922231,0.478699
572,307.2,0.136521,0.0888337,0.469399
573,307.3,0.133597,0.0855634,0.460098
574,307.4,0.130738,0.0824093,0.450801
575,307.5,0.127938,0.0793657,0.4415
576,307.6,0.125199,0.0764303,0.432199
577,307.7,0.122518,0.0735992,0.422899
578,307.8,0.119894,0.0708693,0.413598
579,307.9,0.117328,0.0682379,0.404301
580,308.0,0.114815,0.0657003,0.395
581,308.1,0.112357,0.063254,0.386099
582,308.2,0.109951,0.0608962,0.377199
583,308.3,0.107597,0.0586238,0.368298
584,308.4,0.105293,0.0564345,0.359401
585,308.5,0.103039,0.0543244,0.3505
586,308.6,0.100832,0.0522913,0.341599
587,308.7,0.0986731,0.0503327,0.332699
588,308.8,0.0965602,0.0484459,0.323798
589,308.9,0.0944932,0.0466291,0.314901
590,309.0,0.0924698,0.0448787,0.306
591,309.1,0.0904898,0.043193,0.297399
592,309.2,0.0885521,0.0415698,0.288799
593,309.3,0.0866559,0.0400068,0.280198
594,309.4,0.0848009,0.0385024,0.271601
595,309.5,0.0829851,0.0370535,0.263
596,309.6,0.0812081,0.0356588,0.254399
597,309.7,0.0794692,0.0343163,0.245799
598,309.8,0.0777675,0.0330241,0.237198
599,309.9,0.0761028,0.0317807,0.228601
600,310.0,0.0744732,0.0305838,0.22
601,310.1,0.0728785,0.0294319,0.2136
602,310.2,0.071318,0.0283234,0.207199
603,310.3,0.0697908,0.0272569,0.200799
604,310.4,0.0682968,0.026231,0.1944
605,310.5,0.0668344,0.0252436,0.188
606,310.6,0.0654033,0.0242937,0.1816
607,310.7,0.0640028,0.0233799,0.175199
608,310.8,0.0626323,0.0225009,0.168799
609,310.9,0.0612915,0.0216555,0.1624
610,311.0,0.0599791,0.0208421,0.156
611,311.1,0.0586948,0.0200597,0.1523
612,311.2,0.0574379,0.0193072,0.1486
613,311.3,0.056208,0.0185835,0.144899
614,311.4,0.0550048,0.0178876,0.1412
615,311.5,0.053827,0.0172182,0.1375
616,311.6,0.0526744,0.0165744,0.1338
617,311.7,0.0515465,0.0159552,0.1301
618,311.8,0.0504427,0.0153598,0.126399
619,311.9,0.0493629,0.0147874,0.1227
620,312.0,0.0483059,0.0142369,0.119
621,312.1,0.0472715,0.0137074,0.1154
622,312.2,0.0462593,0.0131983,0.1118
623,312.3,0.0452687,0.0127088,0.108199
624,312.4,0.0442997,0.0122382,0.1046
625,312.5,0.0433511,0.0117855,0.101
626,312.6,0.0424228,0.0113503,0.0973998
627,312.7,0.0415144,0.0109317,0.0937996
628,312.8,0.0406255,0.0105293,0.0901993
629,312.9,0.0397558,0.0101424,0.0866002
630,313.0,0.0389045,0.00977032,0.083
631,313.1,0.0380714,0.0094125,0.0795998
632,313.2,0.0372562,0.00906844,0.0761996
633,313.3,0.0364585,0.00873758,0.0727994
634,313.4,0.035678,0.00841952,0.0694002
635,313.5,0.034914,0.00811358,0.066
636,313.6,0.0341664,0.00781937,0.0625998
637,313.7,0.0334348,0.00753643,0.0591996
638,313.8,0.0327189,0.00726433,0.0557994
639,313.9,0.0320185,0.00700274,0.0524002
640,314.0,0.0313329,0.00675107,0.049
641,314.1,0.0306619,0.00650902,0.0474999
642,314.2,0.0300054,0.00627623,0.0459998
643,314.3,0.0293629,0.00605231,0.0444997
644,314.4,0.0287343,0.00583701,0.0430001
645,314.5,0.028119,0.00562984,0.0415
646,314.6,0.0275169,0.00543055,0.0399999
647,314.7,0.0269277,0.00523886,0.0384998
648,314.8,0.0263511,0.00505443,0.0369997
649,314.9,0.025787,0.00487707,0.0355001
650,315.0,0.0252348,0.00470636,0.034
651,315.1,0.0246945,0.00454212,0.0313441
652,315.2,0.0241657,0.00438409,0.0301081
653,315.3,0.0236482,0.00423202,0.0289207
654,315.4,0.023142,0.00408574,0.0277807
655,315.5,0.0226464,0.00394491,0.0266851
656,315.6,0.0221615,0.00380937,0.0256329
657,315.7,0.021687,0.00367892,0.024622
658,315.8,0.0212226,0.00355336,0.0236511
659,315.9,0.0207683,0.00343254,0.0227187
660,316.0,0.0203236,0.00331619,0.0218228
661,316.1,0.0198884,0.00320418,0.0209623
662,316.2,0.0194625,0.00309633,0.0201356
663,316.3,0.0190458,0.0029925,0.0193416
664,316.4,0.0186381,0.00289254,0.0185791
665,316.5,0.018239,0.00279625,0.0178465
666,316.6,0.0178484,0.00270352,0.0171428
667,316.7,0.0174662,0.00261421,0.0164667
668,316.8,0.0170922,0.00252818,0.0158174
669,316.9,0.0167263,0.00244534,0.0151938
670,317.0,0.0163682,0.0023655,0.0145947
671,317.1,0.0160177,0.00228859,0.0140191
672,317.2,0.0156747,0.00221448,0.0134663
673,317.3,0.015339,0.00214307,0.0129353
674,317.4,0.0150107,0.00207427,0.0124254
675,317.5,0.0146893,0.00200794,0.0119354
676,317.6,0.0143747,0.00194401,0.0114647
677,317.7,0.0140669,0.00188238,0.0110126
678,317.8,0.0137657,0.00182297,0.0105784
679,317.9,0.013471,0.00176571,0.0101613
680,318.0,0.0131826,0.00171048,0.00976067
681,318.1,0.0129003,0.00165723,0.00937572
682,318.2,0.0126241,0.00160586,0.00900595
683,318.3,0.0123537,0.00155632,0.0086509
684,318.4,0.0120893,0.00150855,0.00830985
685,318.5,0.0118304,0.00146245,0.00798212
686,318.6,0.0115771,0.00141798,0.00766743
687,318.7,0.0113292,0.00137507,0.00736504
688,318.8,0.0110866,0.00133366,0.00707457
689,318.9,0.0108493,0.0012937,0.00679567
690,319.0,0.010617,0.00125513,0.00652775
691,319.1,0.0103896,0.0012179,0.00627031
692,319.2,0.0101671,0.00118195,0.00602301
693,319.3,0.00994944,0.00114724,0.00578556
694,319.4,0.00973645,0.00111374,0.00555747
695,319.5,0.00952796,0.00108138,0.00533829
696,319.6,0.00932394,0.00105012,0.00512776
697,319.7,0.00912429,0.00101993,0.0049256
698,319.8,0.00892891,0.000990763,0.00473134
699,319.9,0.00873777,0.000962593,0.00454481
700,320.0,0.00855067,0.000935366,0.00436564
701,320.1,0.00836757,0.000909055,0.00419347
702,320.2,0.0081884,0.000883626,0.00402808
703,320.3,0.00801306,0.000859046,0.00386922
704,320.4,0.00784153,0.000835292,0.00371674
705,320.5,0.00767361,0.00081232,0.00357015
706,320.6,0.0075093,0.000790107,0.00342935
707,320.7,0.00734851,0.000768628,0.00329415
708,320.8,0.00719115,0.000747854,0.00316423
709,320.9,0.00703721,0.000727765,0.00303949
710,321.0,0.00688652,0.000708326,0.00291961
711,321.1,0.00673906,0.000689519,0.00280451
712,321.2,0.00659476,0.000671321,0.00269391
713,321.3,0.00645354,0.000653711,0.00258766
714,321.4,0.0063154,0.000636672,0.00248565
715,321.5,0.00618017,0.000620174,0.00238765
716,321.6,0.00604783,0.000604202,0.00229349
717,321.7,0.00591833,0.000588739,0.00220303
718,321.8,0.0057916,0.000573765,0.00211618
719,321.9,0.00566762,0.000559268,0.00203275
720,322.0,0.00554626,0.000545223,0.00195258
721,322.1,0.0054275,0.000531617,0.00187561
722,322.2,0.00531128,0.000518437,0.00180163
723,322.3,0.00519755,0.000505666,0.00173058
724,322.4,0.00508628,0.000493294,0.00166235
725,322.5,0.00497737,0.0004813,0.00159682
726,322.6,0.00487079,0.000469675,0.00153384
727,322.7,0.00476649,0.000458406,0.00147335
728,322.8,0.00466443,0.00044748,0.00141526
729,322.9,0.00456458,0.000436889,0.00135947
730,323.0,0.00446684,0.000426615,0.00130585
731,323.1,0.00437119,0.000416651,0.00125435
732,323.2,0.00427759,0.000406986,0.0012049
733,323.3,0.00418599,0.000397609,0.00115738
734,323.4,0.00409639,0.000388514,0.00111175
735,323.5,0.00400867,0.000379686,0.00106792
736,323.6,0.00392283,0.000371119,0.0010258
737,323.7,0.00383883,0.000362803,0.000985348
738,323.8,0.00375663,0.000354731,0.000946501
739,323.9,0.00367621,0.000346897,0.000909187
740,324.0,0.00359749,0.000339287,0.00087333
741,324.1,0.00352046,0.000331898,0.000838887
742,324.2,0.00344508,0.000324721,0.000805814
743,324.3,0.00337131,0.000317751,0.000774034
744,324.4,0.00329914,0.000310981,0.000743519
745,324.5,0.00322849,0.000304402,0.000714195
746,324.6,0.00315936,0.000298008,0.000686039
747,324.7,0.00309171,0.000291796,0.000658982
748,324.8,0.00302551,0.000285757,0.000632993
749,324.9,0.00296074,0.000279889,0.000608047
750,325.0,0.00289734,0.000274183,0.000584067
751,325.1,0.0028353,0.000268635,0.000561032
752,325.2,0.00277459,0.000263239,0.000538905
753,325.3,0.00271518,0.000257992,0.00051766
754,325.4,0.00265706,0.000252891,0.000497251
755,325.5,0.00260016,0.000247926,0.00047764
756,325.6,0.00254448,0.000243096,0.00045881
757,325.7,0.00249,0.000238397,0.000440715
758,325.8,0.00243668,0.000233824,0.000423334
759,325.9,0.00238452,0.000229375,0.000406644
760,326.0,0.00233346,0.000225042,0.000390613
761,326.1,0.00228349,0.000220825,0.000375208
762,326.2,0.0022346,0.00021672,0.00036041
763,326.3,0.00218675,0.000212722,0.000346201
764,326.4,0.00213994,0.00020883,0.000332553
765,326.5,0.00209411,0.000205038,0.000319437
766,326.6,0.00204927,0.000201345,0.000306839
767,326.7,0.00200539,0.000197747,0.000294742
768,326.8,0.00196245,0.000194242,0.000283118
769,326.9,0.00192044,0.000190828,0.000271956
770,327.0,0.00187932,0.000187499,0.000261235
771,327.1,0.00183908,0.000184255,0.000250932
772,327.2,0.0017997,0.000181094,0.000241035
773,327.3,0.00176116,0.000178011,0.000231533
774,327.4,0.00172346,0.000175007,0.000222405
775,327.5,0.00168655,0.000172077,0.000213634
776,327.6,0.00165044,0.000169219,0.000205208
777,327.7,0.0016151,0.000166433,0.000197118
778,327.8,0.00158051,0.000163714,0.000189344
779,327.9,0.00154668,0.000161064,0.000181879
780,328.0,0.00151356,0.000158477,0.000174706
781,328.1,0.00150834,0.000155953,0.000167819
782,328.2,0.00150314,0.00015349,0.0001612
783,328.3,0.00149796,0.000151086,0.000154843
784,328.4,0.0014928,0.000148741,0.00014874
785,328.5,0.00148765,0.000146451,0.000142874
786,328.6,0.00148252,0.000144215,0.000137239
787,328.7,0.00147741,0.000142032,0.000131829
788,328.8,0.00147231,0.0001399,0.00012663
789,328.9,0.00146724,0.000137819,0.000121637
790,329.0,0.00146218,0.000135786,0.00011684
791,329.1,0.00145714,0.000133801,0.000112234
792,329.2,0.00145211,0.000131861,0.000107808
793,329.3,0.0014471,0.000129966,0.000103556
794,329.4,0.00144212,0.000128114,9.94732e-05
795,329.5,0.00143714,0.000126305,9.55516e-05
796,329.6,0.00143219,0.000124537,9.17832e-05
797,329.7,0.00142725,0.000122808,8.81634e-05
798,329.8,0.00142233,0.000121119,8.46876e-05
799,329.9,0.00141743,0.000119468,8.13489e-05
800,330.0,0.00141254,0.000117853,7.81406e-05
801,330.1,0.00140767,0.000116275,7.50588e-05
802,330.2,0.00140281,0.000114731,7.20997e-05
803,330.3,0.00139798,0.000113221,6.92562e-05
804,330.4,0.00139316,0.000111745,6.65259e-05
805,330.5,0.00138835,0.000110301,6.39031e-05
806,330.6,0.00138357,0.000108888,6.13829e-05
807,330.7,0.0013788,0.000107506,5.8962e-05
808,330.8,0.00137404,0.000106153,5.66375e-05
809,330.9,0.0013693,0.00010483,5.44046e-05
810,331.0,0.00136458,0.000103535,5.2259e-05
811,331.1,0.00135988,0.000102267,5.0198e-05
812,331.2,0.00135519,0.000101027,4.8219e-05
813,331.3,0.00135052,9.9812e-05,4.63173e-05
814,331.4,0.00134586,9.86234e-05,4.44913e-05
815,331.5,0.00134122,9.74593e-05,4.27366e-05
816,331.6,0.0013366,9.63195e-05,4.10517e-05
817,331.7,0.00133199,9.52032e-05,3.94327e-05
818,331.8,0.00132739,9.41102e-05,3.78775e-05
819,331.9,0.00132282,9.30398e-05,3.63848e-05
820,332.0,0.00131826,9.19912e-05,3.49498e-05
821,332.1,0.00131371,9.09639e-05,3.35715e-05
822,332.2,0.00130918,8.99576e-05,3.22479e-05
823,332.3,0.00130467,8.89715e-05,3.09761e-05
824,332.4,0.00130017,8.80056e-05,2.97549e-05
825,332.5,0.00129569,8.70588e-05,2.85814e-05
826,332.6,0.00129122,8.6131e-05,2.74546e-05
827,332.7,0.00128677,8.52216e-05,2.63719e-05
828,332.8,0.00128233,8.43303e-05,2.53318e-05
829,332.9,0.00127791,8.34568e-05,2.43331e-05
830,333.0,0.0012735,8.26003e-05,2.33738e-05
831,333.1,0.00126911,8.17604e-05,2.2452e-05
832,333.2,0.00126474,8.0937e-05,2.15665e-05
833,333.3,0.00126038,8.01297e-05,2.07163e-05
834,333.4,0.00125603,7.93381e-05,1.98995e-05
835,333.5,0.0012517,7.85615e-05,1.91147e-05
836,333.6,0.00124738,7.77999e-05,1.83612e-05
837,333.7,0.00124308,7.70528e-05,1.7637e-05
838,333.8,0.0012388,7.63199e-05,1.69414e-05
839,333.9,0.00123453,7.56013e-05,1.62735e-05
840,334.0,0.00123027,7.48958e-05,1.5632e-05
841,334.1,0.00122603,7.42037e-05,1.50155e-05
842,334.2,0.0012218,7.35247e-05,1.44233e-05
843,334.3,0.00121759,7.28582e-05,1.38547e-05
844,334.4,0.00121339,7.22043e-05,1.33084e-05
845,334.5,0.00120921,7.15623e-05,1.27836e-05
846,334.6,0.00120504,7.09323e-05,1.22794e-05
847,334.7,0.00120088,7.03137e-05,1.17953e-05
848,334.8,0.00119674,6.97066e-05,1.13301e-05
849,334.9,0.00119261,6.91107e-05,1.08834e-05
850,335.0,0.0011885,6.85254e-05,1.04544e-05
851,335.1,0.0011844,6.79507e-05,1.00421e-05
852,335.2,0.00118032,6.73864e-05,9.64602e-06
853,335.3,0.00117625,6.68322e-05,9.26559e-06
854,335.4,0.0011722,6.62882e-05,8.90044e-06
855,335.5,0.00116815,6.57536e-05,8.54942e-06
856,335.6,0.00116413,6.52286e-05,8.21224e-06
857,335.7,0.00116011,6.47129e-05,7.88848e-06
858,335.8,0.00115611,6.42062e-05,7.57737e-06
859,335.9,0.00115213,6.37087e-05,7.27864e-06
860,336.0,0.00114815,6.32197e-05,6.99158e-06
861,336.1,0.00114419,6.27391e-05,6.71594e-06
862,336.2,0.00114025,6.22671e-05,6.45108e-06
863,336.3,0.00113632,6.18031e-05,6.19666e-06
864,336.4,0.0011324,6.13473e-05,5.95236e-06
865,336.5,0.0011285,6.08992e-05,5.71769e-06
866,336.6,0.0011246,6.04589e-05,5.49219e-06
867,336.7,0.00112073,6.0026e-05,5.27559e-06
868,336.8,0.00111686,5.96005e-05,5.06761e-06
869,336.9,0.00111301,5.91823e-05,4.86782e-06
870,337.0,0.00110918,5.8771e-05,4.67584e-06
871,337.1,0.00110535,5.83668e-05,4.4915e-06
872,337.2,0.00110154,5.79693e-05,4.31436e-06
873,337.3,0.00109774,5.75784e-05,4.14421e-06
874,337.4,0.00109396,5.71943e-05,3.98083e-06
875,337.5,0.00109018,5.68163e-05,3.82389e-06
876,337.6,0.00108643,5.64446e-05,3.67308e-06
877,337.7,0.00108268,5.60791e-05,3.52822e-06
878,337.8,0.00107895,5.57196e-05,3.38912e-06
879,337.9,0.00107523,5.5366e-05,3.25551e-06
880,338.0,0.00107152,5.50182e-05,3.12711e-06
881,338.1,0.00106783,5.46761e-05,3.00379e-06
882,338.2,0.00106414,5.43395e-05,2.88536e-06
883,338.3,0.00106047,5.40083e-05,2.77157e-06
884,338.4,0.00105682,5.36826e-05,2.6623e-06
885,338.5,0.00105317,5.3362e-05,2.55734e-06
886,338.6,0.00104954,5.30466e-05,2.45649e-06
887,338.7,0.00104592,5.27362e-05,2.35961e-06
888,338.8,0.00104232,5.24308e-05,2.26658e-06
889,338.9,0.00103872,5.21303e-05,2.17722e-06
890,339.0,0.00103514,5.18344e-05,2.09136e-06
891,339.1,0.00103157,5.15433e-05,2.00888e-06
892,339.2,0.00102802,5.12567e-05,1.92968e-06
893,339.3,0.00102447,5.09747e-05,1.85357e-06
894,339.4,0.00102094,5.06971e-05,1.7805e-06
895,339.5,0.00101742,5.04238e-05,1.71028e-06
896,339.6,0.00101391,5.01547e-05,1.64285e-06
897,339.7,0.00101042,4.98899e-05,1.57806e-06
898,339.8,0.00100693,4.9629e-05,1.51582e-06
899,339.9,0.00100346,4.93724e-05,1.45609e-06
900,340.0,0.001,4.91196e-05,1.39866e-06
901,340.1,0.000996552,4.88706e-05,1.3435e-06
902,340.2,0.000993116,4.86254e-05,1.29051e-06
903,340.3,0.000989691,4.83841e-05,1.23964e-06
904,340.4,0.00098628,4.81464e-05,1.19076e-06
905,340.5,0.000982879,4.79123e-05,1.1438e-06
906,340.6,0.00097949,4.76817e-05,1.09871e-06
907,340.7,0.000976112,4.74546e-05,1.05538e-06
908,340.8,0.000972747,4.72309e-05,1.01375e-06
909,340.9,0.000969394,4.70106e-05,9.73789e-07
910,341.0,0.000966051,4.67936e-05,9.35398e-07
911,341.1,0.00096272,4.65797e-05,8.98507e-07
912,341.2,0.0009594,4.63691e-05,8.63071e-07
913,341.3,0.000956092,4.61616e-05,8.29046e-07
914,341.4,0.000952796,4.59573e-05,7.96361e-07
915,341.5,0.000949511,4.57558e-05,7.64954e-07
916,341.6,0.000946237,4.55574e-05,7.34785e-07
917,341.7,0.000942974,4.53619e-05,7.05817e-07
918,341.8,0.000939723,4.51692e-05,6.7798e-07
919,341.9,0.000936484,4.49794e-05,6.51252e-07
920,342.0,0.000933254,4.47923e-05,6.25577e-07
921,342.1,0.000930036,4.46079e-05,6.00905e-07
922,342.2,0.000926829,4.44262e-05,5.77206e-07
923,342.3,0.000923634,4.42471e-05,5.5445e-07
924,342.4,0.00092045,4.40707e-05,5.32592e-07
925,342.5,0.000917276,4.38968e-05,5.11587e-07
926,342.6,0.000914113,4.37253e-05,4.91411e-07
927,342.7,0.000910961,4.35563e-05,4.72037e-07
928,342.8,0.00090782,4.33897e-05,4.53421e-07
929,342.9,0.000904691,4.32256e-05,4.35545e-07
930,343.0,0.000901571,4.30636e-05,4.18368e-07
931,343.1,0.000898463,4.29041e-05,4.01874e-07
932,343.2,0.000895365,4.27468e-05,3.86025e-07
933,343.3,0.000892277,4.25917e-05,3.708e-07
934,343.4,0.000889201,4.24388e-05,3.56187e-07
935,343.5,0.000886135,4.22881e-05,3.4214e-07
936,343.6,0.00088308,4.21394e-05,3.28646e-07
937,343.7,0.000880035,4.19928e-05,3.1569e-07
938,343.8,0.000877001,4.18484e-05,3.03239e-07
939,343.9,0.000873977,4.17059e-05,2.91284e-07
940,344.0,0.000870964,4.15654e-05,2.79797e-07
941,344.1,0.00086796,4.14268e-05,2.68766e-07
942,344.2,0.000864968,4.12901e-05,2.58166e-07
943,344.3,0.000861985,4.11553e-05,2.47984e-07
944,344.4,0.000859014,4.10225e-05,2.38208e-07
945,344.5,0.000856052,4.08914e-05,2.28817e-07
946,344.6,0.0008531,4.07621e-05,2.19793e-07
947,344.7,0.000850158,4.06346e-05,2.11124e-07
948,344.8,0.000847227,4.05088e-05,2.02801e-07
949,344.9,0.000844306,4.03848e-05,1.94806e-07
950,345.0,0.000841395,4.02625e-05,1.87123e-07
951,345.1,0.000838494,4.01418e-05,1.79746e-07
952,345.2,0.000835603,4.00227e-05,1.72657e-07
953,345.3,0.000832722,3.99053e-05,1.65847e-07
954,345.4,0.000829851,3.97894e-05,1.59309e-07
955,345.5,0.00082699,3.96751e-05,1.53028e-07
956,345.6,0.000824138,3.95624e-05,1.46993e-07
957,345.7,0.000821297,3.94511e-05,1.41196e-07
958,345.8,0.000818465,3.93414e-05,1.35629e-07
959,345.9,0.000815643,3.92331e-05,1.30282e-07
960,346.0,0.000812831,3.91263e-05,1.25144e-07
961,346.1,0.000810028,3.90208e-05,1.20209e-07
962,346.2,0.000807235,3.89168e-05,1.1547e-07
963,346.3,0.000804451,3.88142e-05,1.10916e-07
964,346.4,0.000801678,3.8713e-05,1.06543e-07
965,346.5,0.000798914,3.8613e-05,1.02341e-07
966,346.6,0.000796159,3.85144e-05,9.83063e-08
967,346.7,0.000793414,3.84171e-05,9.44292e-08
968,346.8,0.000790678,3.83211e-05,9.07051e-08
969,346.9,0.000787953,3.82264e-05,8.71305e-08
970,347.0,0.000785236,3.81328e-05,8.36941e-08
971,347.1,0.000782528,3.80405e-05,8.03934e-08
972,347.2,0.00077983,3.79495e-05,7.72239e-08
973,347.3,0.000777141,3.78596e-05,7.41783e-08
974,347.4,0.000774462,3.77708e-05,7.12539e-08
975,347.5,0.000771792,3.76833e-05,6.84438e-08
976,347.6,0.00076913,3.75969e-05,6.57454e-08
977,347.7,0.000766478,3.75115e-05,6.31525e-08
978,347.8,0.000763836,3.74273e-05,6.06619e-08
979,347.9,0.000761203,3.73442e-05,5.82703e-08
980,348.0,0.000758578,3.72622e-05,5.59731e-08
981,348.1,0.000755962,3.71812e-05,5.37656e-08
982,348.2,0.000753355,3.71013e-05,5.16451e-08
983,348.3,0.000750758,3.70223e-05,4.96091e-08
984,348.4,0.00074817,3.69445e-05,4.76533e-08
985,348.5,0.00074559,3.68676e-05,4.57739e-08
986,348.6,0.000743019,3.67917e-05,4.39693e-08
987,348.7,0.000740457,3.67167e-05,4.22352e-08
988,348.8,0.000737904,3.66427e-05,4.05695e-08
989,348.9,0.00073536,3.65697e-05,3.89701e-08
990,349.0,0.000732825,3.64975e-05,3.74338e-08
991,349.1,0.000730298,3.64263e-05,3.59574e-08
992,349.2,0.00072778,3.6356e-05,3.45393e-08
993,349.3,0.00072527,3.62866e-05,3.31776e-08
994,349.4,0.00072277,3.62181e-05,3.18696e-08
995,349.5,0.000720278,3.61504e-05,3.06127e-08
996,349.6,0.000717794,3.60836e-05,2.94054e-08
997,349.7,0.000715319,3.60177e-05,2.82461e-08
998,349.8,0.000712853,3.59525e-05,2.71322e-08
999,349.9,0.000710396,3.58882e-05,2.60625e-08
1000,350.0,0.000707946,3.58247e-05,2.5035e-08
1001,350.1,0.000705505,3.5762e-05,2.40477e-08
1002,350.2,0.000703072,3.57e-05,2.30993e-08
1003,350.3,0.000700648,3.56389e-05,2.21882e-08
1004,350.4,0.000698233,3.55785e-05,2.13138e-08
1005,350.5,0.000695825,3.55189e-05,2.04732e-08
1006,350.6,0.000693426,3.546e-05,1.96658e-08
1007,350.7,0.000691035,3.54018e-05,1.88905e-08
1008,350.8,0.000688652,3.53444e-05,1.81455e-08
1009,350.9,0.000686278,3.52876e-05,1.74301e-08
1010,351.0,0.000683912,3.52316e-05,1.67427e-08
1011,351.1,0.000681553,3.51763e-05,1.60826e-08
1012,351.2,0.000679203,3.51216e-05,1.54484e-08
1013,351.3,0.000676862,3.50677e-05,1.48391e-08
1014,351.4,0.000674528,3.50144e-05,1.42541e-08
1015,351.5,0.000672202,3.49617e-05,1.36921e-08
1016,351.6,0.000669885,3.49097e-05,1.31521e-08
1017,351.7,0.000667575,3.48583e-05,1.26334e-08
1018,351.8,0.000665273,3.48076e-05,1.21354e-08
1019,351.9,0.000662979,3.47575e-05,1.16569e-08
1020,352.0,0.000660694,3.4708e-05,1.11972e-08
1021,352.1,0.000658415,3.46592e-05,1.07558e-08
1022,352.2,0.000656145,3.46108e-05,1.03316e-08
1023,352.3,0.000653883,3.45632e-05,9.92411e-09
1024,352.4,0.000651629,3.4516e-05,9.53286e-09
1025,352.5,0.000649382,3.44695e-05,9.15704e-09
1026,352.6,0.000647142,3.44235e-05,8.79589e-09
1027,352.7,0.000644911,3.43781e-05,8.449e-09
1028,352.8,0.000642687,3.43332e-05,8.1159e-09
1029,352.9,0.000640472,3.42889e-05,7.79594e-09
1030,353.0,0.000638264,3.42451e-05,7.48848e-09
1031,353.1,0.000636063,3.42019e-05,7.19315e-09
1032,353.2,0.000633869,3.41592e-05,6.90956e-09
1033,353.3,0.000631684,3.4117e-05,6.63706e-09
1034,353.4,0.000629507,3.40753e-05,6.3754e-09
1035,353.5,0.000627336,3.40341e-05,6.12406e-09
1036,353.6,0.000625173,3.39934e-05,5.88253e-09
1037,353.7,0.000623017,3.39532e-05,5.65053e-09
1038,353.8,0.000620869,3.39134e-05,5.42777e-09
1039,353.9,0.000618728,3.38742e-05,5.21378e-09
1040,354.0,0.000616595,3.38354e-05,5.00816e-09
1041,354.1,0.000614469,3.37971e-05,4.81064e-09
1042,354.2,0.00061235,3.37593e-05,4.62099e-09
1043,354.3,0.000610239,3.37219e-05,4.43874e-09
1044,354.4,0.000608135,3.36849e-05,4.26375e-09
1045,354.5,0.000606038,3.36484e-05,4.09559e-09
1046,354.6,0.000603948,3.36124e-05,3.93413e-09
1047,354.7,0.000601866,3.35767e-05,3.77897e-09
1048,354.8,0.000599791,3.35415e-05,3.62993e-09
1049,354.9,0.000597723,3.35067e-05,3.48688e-09
1050,355.0,0.000595662,3.34723e-05,3.34936e-09
1051,355.1,0.000593608,3.34384e-05,3.21727e-09
1052,355.2,0.000591561,3.34048e-05,3.09043e-09
1053,355.3,0.000589522,3.33716e-05,2.96855e-09
1054,355.4,0.000587489,3.33389e-05,2.85152e-09
1055,355.5,0.000585464,3.33065e-05,2.73906e-09
1056,355.6,0.000583445,3.32745e-05,2.63107e-09
1057,355.7,0.000581433,3.32429e-05,2.52731e-09
1058,355.8,0.000579428,3.32116e-05,2.42763e-09
1059,355.9,0.000577431,3.31808e-05,2.33193e-09
1060,356.0,0.00057544,3.31503e-05,2.23999e-09
1061,356.1,0.000573456,3.31201e-05,2.15165e-09
1062,356.2,0.000571479,3.30903e-05,2.06679e-09
1063,356.3,0.000569508,3.30609e-05,1.98531e-09
1064,356.4,0.000567545,3.30318e-05,1.90704e-09
1065,356.5,0.000565588,3.30031e-05,1.83183e-09
1066,356.6,0.000563638,3.29747e-05,1.75958e-09
1067,356.7,0.000561694,3.29466e-05,1.69022e-09
1068,356.8,0.000559757,3.29188e-05,1.62356e-09
1069,356.9,0.000557828,3.28914e-05,1.55955e-09
1070,357.0,0.000555904,3.28643e-05,1.49806e-09
1071,357.1,0.000553988,3.28375e-05,1.43898e-09
1072,357.2,0.000552077,3.28111e-05,1.38223e-09
1073,357.3,0.000550174,3.27849e-05,1.32774e-09
1074,357.4,0.000548277,3.27591e-05,1.27539e-09
1075,357.5,0.000546387,3.27335e-05,1.22509e-09
1076,357.6,0.000544503,3.27083e-05,1.17678e-09
1077,357.7,0.000542625,3.26833e-05,1.13038e-09
1078,357.8,0.000540754,3.26587e-05,1.0858e-09
1079,357.9,0.00053889,3.26343e-05,1.043e-09
1080,358.0,0.000537032,3.26102e-05,1.00186e-09
1081,358.1,0.00053518,3.25864e-05,9.62365e-10
1082,358.2,0.000533335,3.25629e-05,9.24411e-10
1083,358.3,0.000531496,3.25396e-05,8.87953e-10
1084,358.4,0.000529664,3.25167e-05,8.5296e-10
1085,358.5,0.000527837,3.2494e-05,8.1932e-10
1086,358.6,0.000526017,3.24715e-05,7.87007e-10
1087,358.7,0.000524203,3.24493e-05,7.5598e-10
1088,358.8,0.000522396,3.24274e-05,7.26165e-10
1089,358.9,0.000520595,3.24057e-05,6.97537e-10
1090,359.0,0.0005188,3.23843e-05,6.70027e-10
1091,359.1,0.000517011,3.23631e-05,6.43612e-10
1092,359.2,0.000515229,3.23422e-05,6.18229e-10
1093,359.3,0.000513452,3.23215e-05,5.93847e-10
1094,359.4,0.000511682,3.2301e-05,5.70435e-10
1095,359.5,0.000509918,3.22808e-05,5.47946e-10
1096,359.6,0.00050816,3.22608e-05,5.26336e-10
1097,359.7,0.000506407,3.22411e-05,5.05578e-10
1098,359.8,0.000504661,3.22216e-05,4.85646e-10
1099,359.9,0.000502921,3.22023e-05,4.665e-10
1100,360.0,0.000501187,3.21832e-05,4.48102e-10
1101,360.1,0.000499459,3.21644e-05,4.30436e-10
1102,360.2,0.000497737,3.21458e-05,4.1346e-10
1103,360.3,0.000496021,3.21273e-05,3.97154e-10
1104,360.4,0.000494311,3.21091e-05,3.81496e-10
1105,360.5,0.000492606,3.20911e-05,3.66456e-10
1106,360.6,0.000490908,3.20734e-05,3.52004e-10
1107,360.7,0.000489215,3.20558e-05,3.38121e-10
1108,360.8,0.000487528,3.20384e-05,3.24791e-10
1109,360.9,0.000485848,3.20212e-05,3.11986e-10
1110,361.0,0.000484173,3.20042e-05,2.99682e-10
1111,361.1,0.000482503,3.19874e-05,2.87863e-10
1112,361.2,0.000480839,3.19709e-05,2.76514e-10
1113,361.3,0.000479181,3.19545e-05,2.65609e-10
1114,361.4,0.000477529,3.19382e-05,2.55138e-10
1115,361.5,0.000475883,3.19222e-05,2.45075e-10
1116,361.6,0.000474242,3.19063e-05,2.35413e-10
1117,361.7,0.000472607,3.18907e-05,2.26129e-10
1118,361.8,0.000470977,3.18752e-05,2.17211e-10
1119,361.9,0.000469354,3.18599e-05,2.08651e-10
1120,362.0,0.000467735,3.18448e-05,2.00422e-10
1121,362.1,0.000466122,3.18298e-05,1.92517e-10
1122,362.2,0.000464515,3.1815e-05,1.84928e-10
1123,362.3,0.000462913,3.18004e-05,1.77634e-10
1124,362.4,0.000461318,3.1786e-05,1.70631e-10
1125,362.5,0.000459727,3.17717e-05,1.63902e-10
1126,362.6,0.000458142,3.17576e-05,1.5744e-10
1127,362.7,0.000456562,3.17436e-05,1.51231e-10
1128,362.8,0.000454988,3.17298e-05,1.45267e-10
1129,362.9,0.000453419,3.17162e-05,1.3954e-10
1130,363.0,0.000451856,3.17026e-05,1.34038e-10
1131,363.1,0.000450298,3.16893e-05,1.28752e-10
1132,363.2,0.000448745,3.16762e-05,1.23674e-10
1133,363.3,0.000447198,3.16631e-05,1.18799e-10
1134,363.4,0.000445656,3.16502e-05,1.14115e-10
1135,363.5,0.00044412,3.16375e-05,1.09614e-10
1136,363.6,0.000442588,3.16249e-05,1.05293e-10
1137,363.7,0.000441062,3.16125e-05,1.0114e-10
1138,363.8,0.000439542,3.16001e-05,9.71516e-11
1139,363.9,0.000438026,3.1588e-05,9.33215e-11
1140,364.0,0.000436516,3.1576e-05,8.96424e-11
1141,364.1,0.000435011,3.1564e-05,8.6107e-11
1142,364.2,0.000433511,3.15523e-05,8.27111e-11
1143,364.3,0.000432016,3.15407e-05,7.94503e-11
1144,364.4,0.000430527,3.15292e-05,7.6318e-11
1145,364.5,0.000429042,3.15178e-05,7.33081e-11
1146,364.6,0.000427563,3.15066e-05,7.0417e-11
1147,364.7,0.000426089,3.14955e-05,6.76408e-11
1148,364.8,0.000424619,3.14845e-05,6.49732e-11
1149,364.9,0.000423156,3.14737e-05,6.24117e-11
1150,365.0,0.000421697,3.14629e-05,5.99512e-11
1151,365.1,0.000420242,3.14524e-05,5.75868e-11
1152,365.2,0.000418794,3.14419e-05,5.53156e-11
1153,365.3,0.000417349,3.14315e-05,5.31349e-11
1154,365.4,0.000415911,3.14212e-05,5.10401e-11
1155,365.5,0.000414477,3.14111e-05,4.90271e-11
1156,365.6,0.000413047,3.14011e-05,4.70936e-11
1157,365.7,0.000411623,3.13912e-05,4.52369e-11
1158,365.8,0.000410204,3.13813e-05,4.34529e-11
1159,365.9,0.00040879,3.13717e-05,4.17398e-11
1160,366.0,0.00040738,3.13621e-05,4.00936e-11
1161,366.1,0.000405976,3.13526e-05,3.8513e-11
1162,366.2,0.000404576,3.13433e-05,3.69941e-11
1163,366.3,0.000403181,3.1334e-05,3.55351e-11
1164,366.4,0.000401791,3.13249e-05,3.41341e-11
1165,366.5,0.000400405,3.13158e-05,3.27884e-11
1166,366.6,0.000399025,3.13069e-05,3.14953e-11
1167,366.7,0.000397649,3.12981e-05,3.02532e-11
1168,366.8,0.000396278,3.12893e-05,2.90605e-11
1169,366.9,0.000394912,3.12807e-05,2.79148e-11
1170,367.0,0.00039355,3.12721e-05,2.68139e-11
1171,367.1,0.000392193,3.12637e-05,2.57568e-11
1172,367.2,0.000390841,3.12553e-05,2.47409e-11
1173,367.3,0.000389493,3.12471e-05,2.37652e-11
1174,367.4,0.000388151,3.12389e-05,2.28283e-11
1175,367.5,0.000386812,3.12308e-05,2.19283e-11
1176,367.6,0.000385478,3.12228e-05,2.10635e-11
1177,367.7,0.000384149,3.12149e-05,2.02328e-11
1178,367.8,0.000382824,3.12071e-05,1.94351e-11
1179,367.9,0.000381505,3.11994e-05,1.86689e-11
1180,368.0,0.00038019,3.11918e-05,1.79326e-11
1181,368.1,0.000378879,3.11842e-05,1.72254e-11
1182,368.2,0.000377572,3.11767e-05,1.65463e-11
1183,368.3,0.00037627,3.11694e-05,1.58937e-11
1184,368.4,0.000374973,3.11621e-05,1.52671e-11
1185,368.5,0.00037368,3.11549e-05,1.46652e-11
1186,368.6,0.000372392,3.11477e-05,1.40869e-11
1187,368.7,0.000371108,3.11407e-05,1.35313e-11
1188,368.8,0.000369828,3.11337e-05,1.29978e-11
1189,368.9,0.000368553,3.11268e-05,1.24854e-11
1190,369.0,0.000367282,3.112e-05,1.1993e-11
1191,369.1,0.000366016,3.11133e-05,1.152e-11
1192,369.2,0.000364754,3.11066e-05,1.10658e-11
1193,369.3,0.000363496,3.11e-05,1.06294e-11
1194,369.4,0.000362243,3.10935e-05,1.02104e-11
1195,369.5,0.000360994,3.10871e-05,9.80769e-12
1196,369.6,0.000359749,3.10807e-05,9.42103e-12
1197,369.7,0.000358509,3.10744e-05,9.04948e-12
1198,369.8,0.000357273,3.10682e-05,8.69258e-12
1199,369.9,0.000356041,3.1062e-05,8.35001e-12
1200,370.0,0.000354814,3.10559e-05,8.0207e-12
1201,370.1,0.00035359,3.10499e-05,7.70437e-12
1202,370.2,0.000352371,3.10439e-05,7.40063e-12
1203,370.3,0.000351156,3.10381e-05,7.10876e-12
1204,370.4,0.000349945,3.10323e-05,6.82851e-12
1205,370.5,0.000348739,3.10265e-05,6.5592e-12
1206,370.6,0.000347536,3.10208e-05,6.30061e-12
1207,370.7,0.000346338,3.10152e-05,6.05212e-12
1208,370.8,0.000345144,3.10096e-05,5.81343e-12
1209,370.9,0.000343954,3.10041e-05,5.58425e-12
1210,371.0,0.000342768,3.09987e-05,5.36409e-12
1211,371.1,0.000341586,3.09933e-05,5.15254e-12
1212,371.2,0.000340408,3.0988e-05,4.94933e-12
1213,371.3,0.000339234,3.09827e-05,4.75421e-12
1214,371.4,0.000338065,3.09776e-05,4.56678e-12
1215,371.5,0.000336899,3.09724e-05,4.38667e-12
1216,371.6,0.000335738,3.09673e-05,4.21367e-12
1217,371.7,0.00033458,3.09623e-05,4.04755e-12
1218,371.8,0.000333426,3.09573e-05,3.88792e-12
1219,371.9,0.000332277,3.09524e-05,3.73464e-12
1220,372.0,0.000331131,3.09475e-05,3.58741e-12
1221,372.1,0.000329989,3.09427e-05,3.44592e-12
1222,372.2,0.000328852,3.0938e-05,3.31002e-12
1223,372.3,0.000327718,3.09333e-05,3.17953e-12
1224,372.4,0.000326588,3.09286e-05,3.05418e-12
1225,372.5,0.000325462,3.0924e-05,2.93372e-12
1226,372.6,0.00032434,3.09195e-05,2.81802e-12
1227,372.7,0.000323221,3.0915e-05,2.70692e-12
1228,372.8,0.000322107,3.09106e-05,2.60017e-12
1229,372.9,0.000320996,3.09062e-05,2.49766e-12
1230,373.0,0.00031989,3.09018e-05,2.39915e-12
1231,373.1,0.000318787,3.08975e-05,2.30457e-12
1232,373.2,0.000317687,3.08933e-05,2.21368e-12
1233,373.3,0.000316592,3.08891e-05,2.12638e-12
1234,373.4,0.000315501,3.08849e-05,2.04258e-12
1235,373.5,0.000314413,3.08808e-05,1.96202e-12
1236,373.6,0.000313329,3.08768e-05,1.88464e-12
1237,373.7,0.000312248,3.08727e-05,1.81034e-12
1238,373.8,0.000311171,3.08688e-05,1.73894e-12
1239,373.9,0.000310099,3.08648e-05,1.67039e-12
1240,374.0,0.00030903,3.0861e-05,1.60451e-12
1241,374.1,0.000307964,3.08571e-05,1.54125e-12
1242,374.2,0.000306902,3.08533e-05,1.48047e-12
1243,374.3,0.000305844,3.08496e-05,1.42208e-12
1244,374.4,0.00030479,3.08459e-05,1.36602e-12
1245,374.5,0.000303739,3.08422e-05,1.31216e-12
1246,374.6,0.000302691,3.08385e-05,1.26041e-12
1247,374.7,0.000301648,3.0835e-05,1.2107e-12
1248,374.8,0.000300607,3.08314e-05,1.16297e-12
1249,374.9,0.000299571,3.08279e-05,1.11712e-12
1250,375.0,0.000298538,3.08244e-05,1.07307e-12
1251,375.1,0.000297509,3.0821e-05,1.03076e-12
1252,375.2,0.000296483,3.08176e-05,9.9011e-13
1253,375.3,0.000295461,3.08143e-05,9.51061e-13
1254,375.4,0.000294442,3.0811e-05,9.13566e-13
1255,375.5,0.000293427,3.08076e-05,8.7755e-13
1256,375.6,0.000292415,3.08044e-05,8.42941e-13
1257,375.7,0.000291407,3.08012e-05,8.09696e-13
1258,375.8,0.000290402,3.0798e-05,7.77775e-13
1259,375.9,0.000289401,3.07949e-05,7.47112e-13
1260,376.0,0.000288403,3.07918e-05,7.17647e-13
1261,376.1,0.000287409,3.07887e-05,6.89344e-13
1262,376.2,0.000286418,3.07857e-05,6.62167e-13
1263,376.3,0.00028543,3.07827e-05,6.36052e-13
1264,376.4,0.000284446,3.07797e-05,6.10976e-13
1265,376.5,0.000283465,3.07768e-05,5.8688e-13
1266,376.6,0.000282488,3.07739e-05,5.63743e-13
1267,376.7,0.000281514,3.0771e-05,5.4151e-13
1268,376.8,0.000280543,3.07682e-05,5.20153e-13
1269,376.9,0.000279576,3.07654e-05,4.99654e-13
1270,377.0,0.000278612,3.07626e-05,4.79949e-13
1271,377.1,0.000277652,3.07599e-05,4.6102e-13
1272,377.2,0.000276694,3.07572e-05,4.42845e-13
1273,377.3,0.00027574,3.07545e-05,4.2538e-13
1274,377.4,0.000274789,3.07518e-05,4.0861e-13
1275,377.5,0.000273842,3.07492e-05,3.92495e-13
1276,377.6,0.000272898,3.07466e-05,3.77021e-13
1277,377.7,0.000271957,3.0744e-05,3.62152e-13
1278,377.8,0.000271019,3.07415e-05,3.47869e-13
1279,377.9,0.000270085,3.0739e-05,3.34155e-13
1280,378.0,0.000269154,3.07365e-05,3.20981e-13
1281,378.1,0.000268225,3.0734e-05,3.08322e-13
1282,378.2,0.000267301,3.07316e-05,2.96162e-13
1283,378.3,0.000266379,3.07292e-05,2.84486e-13
1284,378.4,0.000265461,3.07269e-05,2.73271e-13
1285,378.5,0.000264545,3.07245e-05,2.62493e-13
1286,378.6,0.000263633,3.07222e-05,2.52145e-13
1287,378.7,0.000262724,3.07199e-05,2.422e-13
1288,378.8,0.000261818,3.07176e-05,2.32648e-13
1289,378.9,0.000260916,3.07154e-05,2.23476e-13
1290,379.0,0.000260016,3.07132e-05,2.14666e-13
1291,379.1,0.000259119,3.0711e-05,2.062e-13
1292,379.2,0.000258226,3.07088e-05,1.98068e-13
1293,379.3,0.000257336,3.07067e-05,1.90259e-13
1294,379.4,0.000256448,3.07046e-05,1.82758e-13
1295,379.5,0.000255564,3.07024e-05,1.75551e-13
1296,379.6,0.000254683,3.07004e-05,1.68627e-13
1297,379.7,0.000253805,3.06983e-05,1.61979e-13
1298,379.8,0.00025293,3.06963e-05,1.55591e-13
1299,379.9,0.000252058,3.06943e-05,1.49457e-13
1300,380.0,0.000251189,3.06923e-05,1.43565e-13
1301,380.1,0.000250323,3.06903e-05,1.37903e-13
1302,380.2,0.000249459,3.06884e-05,1.32464e-13
1303,380.3,0.000248599,3.06865e-05,1.27242e-13
1304,380.4,0.000247742,3.06846e-05,1.22225e-13
1305,380.5,0.000246888,3.06827e-05,1.17405e-13
1306,380.6,0.000246037,3.06808e-05,1.12775e-13
1307,380.7,0.000245188,3.0679e-05,1.08329e-13
1308,380.8,0.000244343,3.06772e-05,1.04056e-13
1309,380.9,0.000243501,3.06754e-05,9.9954e-14
1310,381.0,0.000242661,3.06736e-05,9.60119e-14
1311,381.1,0.000241824,3.06719e-05,9.22267e-14
1312,381.2,0.000240991,3.06701e-05,8.85894e-14
1313,381.3,0.00024016,3.06684e-05,8.50956e-14
1314,381.4,0.000239332,3.06667e-05,8.1742e-14
1315,381.5,0.000238506,3.06651e-05,7.85182e-14
1316,381.6,0.000237684,3.06634e-05,7.54216e-14
1317,381.7,0.000236864,3.06617e-05,7.24471e-14
1318,381.8,0.000236048,3.06601e-05,6.95909e-14
1319,381.9,0.000235234,3.06585e-05,6.68474e-14
1320,382.0,0.000234423,3.06569e-05,6.4211e-14
1321,382.1,0.000233615,3.06554e-05,6.16795e-14
1322,382.2,0.000232809,3.06538e-05,5.9247e-14
1323,382.3,0.000232006,3.06523e-05,5.69103e-14
1324,382.4,0.000231207,3.06508e-05,5.46667e-14
1325,382.5,0.000230409,3.06493e-05,5.25115e-14
1326,382.6,0.000229615,3.06478e-05,5.04406e-14
1327,382.7,0.000228823,3.06463e-05,4.84512e-14
1328,382.8,0.000228034,3.06449e-05,4.65411e-14
1329,382.9,0.000227248,3.06434e-05,4.47063e-14
1330,383.0,0.000226464,3.0642e-05,4.29431e-14
1331,383.1,0.000225684,3.06406e-05,4.12495e-14
1332,383.2,0.000224905,3.06392e-05,3.96233e-14
1333,383.3,0.00022413,3.06378e-05,3.80606e-14
1334,383.4,0.000223357,3.06365e-05,3.65601e-14
1335,383.5,0.000222587,3.06351e-05,3.51187e-14
1336,383.6,0.00022182,3.06338e-05,3.37337e-14
1337,383.7,0.000221055,3.06325e-05,3.24033e-14
1338,383.8,0.000220292,3.06312e-05,3.11258e-14
1339,383.9,0.000219533,3.06299e-05,2.98987e-14
1340,384.0,0.000218776,3.06286e-05,2.87196e-14
1341,384.1,0.000218022,3.06274e-05,2.75869e-14
1342,384.2,0.00021727,3.06261e-05,2.64993e-14
1343,384.3,0.000216521,3.06249e-05,2.54542e-14
1344,384.4,0.000215774,3.06237e-05,2.44507e-14
1345,384.5,0.00021503,3.06225e-05,2.34864e-14
1346,384.6,0.000214289,3.06213e-05,2.25605e-14
1347,384.7,0.00021355,3.06201e-05,2.16707e-14
1348,384.8,0.000212814,3.0619e-05,2.08161e-14
1349,384.9,0.00021208,3.06178e-05,1.99957e-14
1350,385.0,0.000211349,3.06167e-05,1.92071e-14
1351,385.1,0.00021062,3.06156e-05,1.84496e-14
1352,385.2,0.000209894,3.06145e-05,1.77222e-14
1353,385.3,0.00020917,3.06134e-05,1.70233e-14
1354,385.4,0.000208449,3.06123e-05,1.63522e-14
1355,385.5,0.00020773,3.06112e-05,1.57073e-14
1356,385.6,0.000207014,3.06101e-05,1.5088e-14
1357,385.7,0.0002063,3.06091e-05,1.4493e-14
1358,385.8,0.000205589,3.0608e-05,1.39214e-14
1359,385.9,0.00020488,3.0607e-05,1.33726e-14
1360,386.0,0.000204174,3.0606e-05,1.28454e-14
1361,386.1,0.00020347,3.0605e-05,1.23388e-14
1362,386.2,0.000202768,3.0604e-05,1.18521e-14
1363,386.3,0.000202069,3.0603e-05,1.13849e-14
1364,386.4,0.000201372,3.06021e-05,1.0936e-14
1365,386.5,0.000200678,3.06011e-05,1.05047e-14
1366,386.6,0.000199986,3.06001e-05,1.00904e-14
1367,386.7,0.000199297,3.05992e-05,9.69263e-15
1368,386.8,0.000198609,3.05983e-05,9.31037e-15
1369,386.9,0.000197925,3.05974e-05,8.94332e-15
1370,387.0,0.000197242,3.05965e-05,8.59074e-15
1371,387.1,0.000196562,3.05956e-05,8.25193e-15
1372,387.2,0.000195884,3.05947e-05,7.92648e-15
1373,387.3,0.000195209,3.05938e-05,7.61399e-15
1374,387.4,0.000194536,3.05929e-05,7.31382e-15
1375,387.5,0.000193865,3.0592e-05,7.02537e-15
1376,387.6,0.000193197,3.05912e-05,6.7483e-15
1377,387.7,0.000192531,3.05904e-05,6.48225e-15
1378,387.8,0.000191867,3.05895e-05,6.2266e-15
1379,387.9,0.000191205,3.05887e-05,5.98112e-15
1380,388.0,0.000190546,3.05879e-05,5.74524e-15
1381,388.1,0.000189889,3.05871e-05,5.51874e-15
1382,388.2,0.000189234,3.05863e-05,5.30108e-15
1383,388.3,0.000188582,3.05855e-05,5.09202e-15
1384,388.4,0.000187932,3.05847e-05,4.89134e-15
1385,388.5,0.000187284,3.0584e-05,4.69844e-15
1386,388.6,0.000186638,3.05832e-05,4.51314e-15
1387,388.7,0.000185994,3.05825e-05,4.33521e-15
1388,388.8,0.000185353,3.05817e-05,4.16424e-15
1389,388.9,0.000184714,3.0581e-05,4.00006e-15
1390,389.0,0.000184077,3.05802e-05,3.84231e-15
1391,389.1,0.000183443,3.05795e-05,3.69083e-15
1392,389.2,0.00018281,3.05788e-05,3.54527e-15
1393,389.3,0.00018218,3.05781e-05,3.40545e-15
1394,389.4,0.000181552,3.05774e-05,3.27119e-15
1395,389.5,0.000180926,3.05767e-05,3.14223e-15
1396,389.6,0.000180302,3.0576e-05,3.0183e-15
1397,389.7,0.00017968,3.05754e-05,2.89926e-15
1398,389.8,0.000179061,3.05747e-05,2.78496e-15
1399,389.9,0.000178443,3.0574e-05,2.67517e-15
1400,390.0,0.000177828,3.05734e-05,2.56966e-15
1401,390.1,0.000177215,3.05727e-05,2.46836e-15
1402,390.2,0.000176604,3.05721e-05,2.37101e-15
1403,390.3,0.000175995,3.05715e-05,2.2775e-15
1404,390.4,0.000175388,3.05708e-05,2.18771e-15
1405,390.5,0.000174783,3.05702e-05,2.10146e-15
1406,390.6,0.000174181,3.05696e-05,2.01858e-15
1407,390.7,0.00017358,3.0569e-05,1.93897e-15
1408,390.8,0.000172982,3.05685e-05,1.86253e-15
1409,390.9,0.000172385,3.05678e-05,1.7891e-15
1410,391.0,0.000171791,3.05673e-05,1.71854e-15
1411,391.1,0.000171199,3.05667e-05,1.65077e-15
1412,391.2,0.000170608,3.05661e-05,1.58569e-15
1413,391.3,0.00017002,3.05655e-05,1.52315e-15
1414,391.4,0.000169434,3.0565e-05,1.4631e-15
1415,391.5,0.00016885,3.05644e-05,1.40542e-15
1416,391.6,0.000168267,3.05639e-05,1.34999e-15
1417,391.7,0.000167687,3.05634e-05,1.29675e-15
1418,391.8,0.000167109,3.05628e-05,1.24561e-15
1419,391.9,0.000166533,3.05623e-05,1.19652e-15
1420,392.0,0.000165959,3.05618e-05,1.14933e-15
1421,392.1,0.000165386,3.05613e-05,1.104e-15
1422,392.2,0.000164816,3.05608e-05,1.06048e-15
1423,392.3,0.000164248,3.05603e-05,1.01865e-15
1424,392.4,0.000163682,3.05598e-05,9.78495e-16
1425,392.5,0.000163117,3.05592e-05,9.39904e-16
1426,392.6,0.000162555,3.05588e-05,9.02849e-16
1427,392.7,0.000161994,3.05583e-05,8.67242e-16
1428,392.8,0.000161436,3.05578e-05,8.33039e-16
1429,392.9,0.000160879,3.05573e-05,8.00198e-16
1430,393.0,0.000160325,3.05569e-05,7.68651e-16
1431,393.1,0.000159772,3.05564e-05,7.38336e-16
1432,393.2,0.000159221,3.0556e-05,7.09217e-16
1433,393.3,0.000158672,3.05555e-05,6.81257e-16
1434,393.4,0.000158125,3.05551e-05,6.54399e-16
1435,393.5,0.00015758,3.05546e-05,6.2859e-16
1436,393.6,0.000157036,3.05542e-05,6.03809e-16
1437,393.7,0.000156495,3.05538e-05,5.79995e-16
1438,393.8,0.000155955,3.05533e-05,5.57121e-16
1439,393.9,0.000155418,3.05529e-05,5.35157e-16
1440,394.0,0.000154882,3.05525e-05,5.14059e-16
1441,394.1,0.000154348,3.05521e-05,4.93785e-16
1442,394.2,0.000153815,3.05517e-05,4.74311e-16
1443,394.3,0.000153285,3.05513e-05,4.55612e-16
1444,394.4,0.000152757,3.05509e-05,4.3765e-16
1445,394.5,0.00015223,3.05505e-05,4.2039e-16
1446,394.6,0.000151705,3.05501e-05,4.0381e-16
1447,394.7,0.000151182,3.05497e-05,3.8789e-16
1448,394.8,0.000150661,3.05493e-05,3.72592e-16
1449,394.9,0.000150141,3.05489e-05,3.57903e-16
1450,395.0,0.000149624,3.05486e-05,3.43793e-16
1451,395.1,0.000149108,3.05482e-05,3.30235e-16
1452,395.2,0.000148594,3.05478e-05,3.17211e-16
1453,395.3,0.000148081,3.05475e-05,3.04705e-16
1454,395.4,0.000147571,3.05471e-05,2.92692e-16
1455,395.5,0.000147062,3.05468e-05,2.81149e-16
1456,395.6,0.000146555,3.05464e-05,2.70061e-16
1457,395.7,0.000146049,3.05461e-05,2.59414e-16
1458,395.8,0.000145546,3.05457e-05,2.49183e-16
1459,395.9,0.000145044,3.05454e-05,2.39359e-16
1460,396.0,0.000144544,3.05451e-05,2.29919e-16
1461,396.1,0.000144046,3.05447e-05,2.20855e-16
1462,396.2,0.000143549,3.05444e-05,2.12145e-16
1463,396.3,0.000143054,3.05441e-05,2.03778e-16
1464,396.4,0.000142561,3.05437e-05,1.95747e-16
1465,396.5,0.000142069,3.05435e-05,1.88027e-16
1466,396.6,0.000141579,3.05431e-05,1.80612e-16
1467,396.7,0.000141091,3.05428e-05,1.73488e-16
1468,396.8,0.000140605,3.05425e-05,1.66649e-16
1469,396.9,0.00014012,3.05422e-05,1.60079e-16
1470,397.0,0.000139637,3.05419e-05,1.53766e-16
1471,397.1,0.000139155,3.05416e-05,1.47704e-16
1472,397.2,0.000138676,3.05413e-05,1.41878e-16
1473,397.3,0.000138197,3.0541e-05,1.36283e-16
1474,397.4,0.000137721,3.05407e-05,1.3091e-16
1475,397.5,0.000137246,3.05405e-05,1.25749e-16
1476,397.6,0.000136773,3.05402e-05,1.2079e-16
1477,397.7,0.000136301,3.05399e-05,1.16026e-16
1478,397.8,0.000135831,3.05396e-05,1.11452e-16
1479,397.9,0.000135363,3.05394e-05,1.07058e-16
1480,398.0,0.000134896,3.05391e-05,1.02836e-16
1481,398.1,0.000134431,3.05389e-05,9.87799e-17
1482,398.2,0.000133968,3.05386e-05,9.48856e-17
1483,398.3,0.000133506,3.05383e-05,9.11434e-17
1484,398.4,0.000133045,3.05381e-05,8.75502e-17
1485,398.5,0.000132587,3.05378e-05,8.40986e-17
1486,398.6,0.00013213,3.05376e-05,8.07819e-17
1487,398.7,0.000131674,3.05373e-05,7.75959e-17
1488,398.8,0.00013122,3.0537e-05,7.45368e-17
1489,398.9,0.000130768,3.05368e-05,7.15983e-17
1490,399.0,0.000130317,3.05366e-05,6.87745e-17
1491,399.1,0.000129867,3.05363e-05,6.60622e-17
1492,399.2,0.00012942,3.05361e-05,6.34577e-17
1493,399.3,0.000128973,3.05359e-05,6.0955e-17
1494,399.4,0.000128529,3.05356e-05,5.85519e-17
1495,399.5,0.000128086,3.05354e-05,5.62427e-17
1496,399.6,0.000127644,3.05352e-05,5.40254e-17
1497,399.7,0.000127204,3.0535e-05,5.18947e-17
1498,399.8,0.000126765,3.05348e-05,4.98481e-17
1499,399.9,0.000126328,3.05345e-05,4.78836e-17
1500,400.0,0.000125893,3.05343e-05,4.59951e-17
